time,temp,setpoint,M_out,P_out,I_out,D_out,PID_out,error,intError,gradient
0.6148102283477783,102.012,130,49.54108821114646,49.482784,0.05830421114645929,0.0,49.54108821114646,27.988,27.988,
2.649651050567627,102.021,130,49.58346167361848,49.466872,0.11658967361847532,0.0,49.58346167361848,27.979,55.967,-0.611413554661984
4.678683280944824,102.063,130,49.56740364227642,49.392616,0.17478764227642277,0.0,49.56740364227642,27.936999999999998,83.904,-2.640674165944755
6.7369163036346436,102.112,130,49.53886753481797,49.30598400000001,0.2328835348179569,0.0,49.53886753481797,27.888000000000005,111.792,-4.67140992355228
8.781042575836182,102.166,130,49.50137893531284,49.21051200000001,0.2908669353128314,0.0,49.50137893531284,27.834000000000003,139.626,-6.73076669218092
10.829828262329102,102.219,130,49.46554792694711,49.11680800000001,0.3487399269470956,0.0,49.46554792694711,27.781000000000006,167.407,-8.776148684749806
12.867731809616089,102.276,130,49.42252617697656,49.01603200000001,0.40649417697655243,0.0,49.42252617697656,27.724000000000004,195.13100000000003,-10.825398577218833
14.89326786994934,102.329,130,49.38646601814541,48.922328000000014,0.4641380181453989,0.0,49.38646601814541,27.671000000000006,222.80200000000002,-12.86417315476191
16.929062843322754,102.383,130,49.34852536726759,48.82685600000001,0.5216693672675858,0.0,49.34852536726759,27.617000000000004,250.41900000000004,-14.890078089126872
18.97525930404663,102.44,130,49.305161974784966,48.72608,0.5790819747849654,0.0,49.305161974784966,27.560000000000002,277.97900000000004,-16.926058931803723
21.019485473632812,102.493,130,49.26876017344174,48.63237600000001,0.6363841734417346,0.0,49.26876017344174,27.507000000000005,305.48600000000005,-18.97273783414355
23.061246395111084,102.545,130,49.23401804642394,48.54044,0.6935780464239426,0.0,49.23401804642394,27.455,332.94100000000003,-21.01723060851802
25.09633469581604,102.6,130,49.19385734417345,48.44320000000001,0.7506573441734418,0.0,49.19385734417345,27.400000000000006,360.341,-23.059054840022796
27.142627477645874,102.65,130,49.16243248262047,48.35479999999999,0.8076324826204785,0.0,49.16243248262047,27.349999999999994,387.69100000000003,-25.094492574966054
29.18095374107361,102.703,130,49.1255932122069,48.261095999999995,0.8644972122069048,0.0,49.1255932122069,27.296999999999997,414.98800000000006,-27.140811224466823
31.211872577667236,102.754,130,49.09218369930481,48.17092799999999,0.9212556993048192,0.0,49.09218369930481,27.245999999999995,442.23400000000004,-29.17931974747476
33.240752935409546,102.803,130,49.06220811028632,48.084296,0.9779121102863204,0.0,49.06220811028632,27.197000000000003,469.43100000000004,-31.2103984835005
35.284077405929565,102.855,130,49.02682019559325,47.99235999999999,1.0344601955932604,0.0,49.02682019559325,27.144999999999996,496.576,-33.23927918283266
37.328068017959595,102.903,130,48.99840428796983,47.90749599999999,1.0909082879698362,0.0,48.99840428796983,27.096999999999994,523.673,-35.28279151028726
39.37941384315491,102.954,130,48.96457813785791,47.81732800000001,1.1472501378579005,0.0,48.96457813785791,27.046000000000006,550.719,-37.32677292504117
41.41689419746399,103.001,130,48.93772607800164,47.73423199999999,1.2034940780016499,0.0,48.93772607800164,26.998999999999995,577.7180000000001,-39.37827904053606
43.458219051361084,103.048,130,48.91077610840108,47.651135999999994,1.2596401084010842,0.0,48.91077610840108,26.951999999999998,604.6700000000001,-41.41581269893446
45.51190233230591,103.097,130,48.88018806268412,47.564504000000014,1.3156840626841053,0.0,48.88018806268412,26.903000000000006,631.5730000000001,-43.4571424099225
47.56543779373169,103.143,130,48.85480819040886,47.483176,1.3716321904088609,0.0,48.85480819040886,26.857,658.4300000000001,-45.510935243551266
49.60944747924805,103.191,130,48.82579232520325,47.398312,1.4274803252032522,0.0,48.82579232520325,26.808999999999997,685.239,-47.56447023609017
51.648592710494995,103.237,130,48.80021663343939,47.31698400000001,1.4832326334393782,0.0,48.80021663343939,26.763000000000005,712.0020000000001,-49.608556845107096
53.69467878341675,103.284,130,48.77277503193118,47.23388799999999,1.5388870319311891,0.0,48.77277503193118,26.715999999999994,738.7180000000001,-51.64771739098355
55.740999937057495,103.328,130,48.75054577023683,47.156096,1.594449770236833,0.0,48.75054577023683,26.671999999999997,765.3900000000001,-53.69388941831656
57.78774571418762,103.375,130,48.72291459879816,47.073,1.6499145987981623,0.0,48.72291459879816,26.625,792.0150000000001,-55.740186615834816
59.84136390686035,103.419,130,48.70049576717333,46.995208000000005,1.7052877671733242,0.0,48.70049576717333,26.581000000000003,818.5960000000001,-57.78701043682883
61.879520893096924,103.464,130,48.67621519217627,46.915648000000004,1.7605671921762698,0.0,48.67621519217627,26.536,845.1320000000001,-59.840636687267335
63.924174785614014,103.508,130,48.653610956993056,46.83785600000001,1.8157549569930482,0.0,48.653610956993056,26.492000000000004,871.624,-61.87883257760208
65.96442890167236,103.552,130,48.63091506162365,46.760063999999986,1.8708510616236598,0.0,48.63091506162365,26.447999999999993,898.072,-63.92350775944957
67.9950909614563,103.596,130,48.608127506068094,46.68227199999999,1.9258555060681042,0.0,48.608127506068094,26.403999999999996,924.476,-65.96378179613316
70.05121874809265,103.638,130,48.588788456698474,46.60801599999999,1.9807724566984801,0.0,48.588788456698474,26.361999999999995,950.838,-67.99449140015315
72.1004843711853,103.683,130,48.56405166395663,46.52845599999999,2.0355956639566397,0.0,48.56405166395663,26.316999999999993,977.155,-70.05059461913717
74.13461971282959,103.725,130,48.54453137740074,46.45420000000001,2.0903313774007306,0.0,48.54453137740074,26.275000000000006,1003.43,-72.0999178342534
76.16940522193909,103.767,130,48.524923597030764,46.37994400000001,2.144979597030753,0.0,48.524923597030764,26.233000000000004,1029.663,-74.13406831033566
78.20435190200806,103.811,130,48.50168815647459,46.302151999999985,2.1995361564746085,0.0,48.50168815647459,26.188999999999993,1055.852,-76.16884259340334
80.24320960044861,103.852,130,48.483671305290436,46.22966399999999,2.254007305290444,0.0,48.483671305290436,26.147999999999996,1082.0,-78.20384095534722
82.2675850391388,103.893,130,48.46556904347826,46.157176,2.308393043478261,0.0,48.46556904347826,26.107,1108.107,-80.24271122675768
84.29406952857971,103.936,130,48.44384120466595,46.08115199999999,2.3626892046659598,0.0,48.44384120466595,26.063999999999993,1134.171,-82.26707492021536
86.31456017494202,103.976,130,48.42733403841169,46.010432,2.416902038411689,0.0,48.42733403841169,26.024,1160.1950000000002,-84.29360610734558
88.36242842674255,104.017,130,48.408973461529406,45.93794400000001,2.4710294615293984,0.0,48.408973461529406,25.983000000000004,1186.178,-86.31409617682958
90.41031408309937,104.059,130,48.38875739083304,45.863688,2.525069390833039,0.0,48.38875739083304,25.941000000000003,1212.1190000000001,-88.3619638779748
92.44700217247009,104.099,130,48.371993992694705,45.792967999999995,2.57902599269471,0.0,48.371993992694705,25.900999999999996,1238.0200000000002,-90.40988140276296
94.49297094345093,104.141,130,48.3516071007423,45.71871199999999,2.6328951007423123,0.0,48.3516071007423,25.858999999999995,1263.8790000000001,-92.44655769496472
96.54356479644775,104.181,130,48.33467288134795,45.647992,2.6866808813479444,0.0,48.33467288134795,25.819000000000003,1289.698,-94.49255662272344
98.59002828598022,104.222,130,48.31588525132557,45.57550400000001,2.740381251325557,0.0,48.31588525132557,25.778000000000006,1315.476,-96.54314893288921
100.63458395004272,104.262,130,48.2987822938612,45.504784,2.7939982938612,0.0,48.2987822938612,25.738,1341.2140000000002,-98.58963080830972
102.67385911941528,104.303,130,48.27982592576883,45.43229600000001,2.847529925768823,0.0,48.27982592576883,25.697000000000003,1366.911,-100.63418462736847
104.72367548942566,104.342,130,48.26432431342053,45.363344000000005,2.9009803134205256,0.0,48.26432431342053,25.658,1392.569,-102.67348671079023
106.76081418991089,104.381,130,48.24874145681631,45.294392,2.954349456816307,0.0,48.24874145681631,25.619,1418.1879999999999,-104.72331018685378
108.80429148674011,104.421,130,48.2313072727701,45.223671999999986,3.007635272770119,0.0,48.2313072727701,25.578999999999994,1443.7669999999998,-106.76044655735289
110.8425714969635,104.459,130,48.217329927654056,45.156487999999996,3.060841927654059,0.0,48.217329927654056,25.540999999999997,1469.3079999999998,-108.80394865817266
112.8926305770874,104.5,130,48.19796317190998,45.084,3.1139631719099796,0.0,48.19796317190998,25.5,1494.8079999999998,-110.84220832002458
114.93905234336853,104.538,130,48.183821255096035,45.016816000000006,3.167005255096029,0.0,48.183821255096035,25.462000000000003,1520.2699999999998,-112.89229996708823
116.98648023605347,104.577,130,48.16783009402616,44.947864,3.2199660940261574,0.0,48.16783009402616,25.423000000000002,1545.6929999999998,-114.9387189715129
119.03311395645142,104.615,130,48.153527771886424,44.88068000000001,3.272847771886414,0.0,48.153527771886424,25.385000000000005,1571.0779999999997,-116.98616099715652
121.06790900230408,104.652,130,48.14091637186285,44.815264,3.325652371862849,0.0,48.14091637186285,25.348,1596.4259999999997,-119.0328083428474
123.1200897693634,104.691,130,48.12468772758336,44.746311999999996,3.378375727583362,0.0,48.12468772758336,25.308999999999997,1621.7349999999997,-121.06759223840248
125.16222333908081,104.728,130,48.111918005420065,44.68089600000001,3.4310220054200538,0.0,48.111918005420065,25.272000000000006,1647.0069999999996,-123.11979415301037
127.19453763961792,104.766,130,48.09730112218686,44.61371199999999,3.4835891221868733,0.0,48.09730112218686,25.233999999999995,1672.2409999999995,-125.16192458411298
129.25386762619019,104.803,130,48.08437516106988,44.54829600000001,3.536079161069871,0.0,48.08437516106988,25.197000000000003,1697.4379999999996,-127.19425138125924
131.29144620895386,104.841,130,48.069602038883005,44.48111200000001,3.588490038882997,0.0,48.069602038883005,25.159000000000006,1722.5969999999998,-129.25357819377783
133.3320815563202,104.877,130,48.05828992199836,44.41746400000001,3.64082592199835,0.0,48.05828992199836,25.123000000000005,1747.7199999999998,-131.29117620641898
135.37938499450684,104.914,130,48.04513272722988,44.352047999999996,3.693084727229881,0.0,48.04513272722988,25.086,1772.8059999999998,-133.33180825030686
137.42169094085693,104.95,130,48.03366853776363,44.288399999999996,3.7452685377636383,0.0,48.03366853776363,25.049999999999997,1797.8559999999998,-135.37912302712925
139.45281314849854,104.986,130,48.02212935359962,44.224751999999995,3.7973773535996225,0.0,48.02212935359962,25.013999999999996,1822.8699999999997,-137.42143278901915
141.48584914207458,105.023,130,48.008745091551795,44.15933600000001,3.849409091551785,0.0,48.008745091551795,24.977000000000004,1847.8469999999998,-139.45255163824697
143.5225648880005,105.06,130,47.99528375162012,44.09392,3.9013637516201247,0.0,47.99528375162012,24.939999999999998,1872.7869999999998,-141.48559134289138
145.5573787689209,105.096,130,47.983515416990684,44.030272,3.9532434169906914,0.0,47.983515416990684,24.903999999999996,1897.6909999999998,-143.52231756285417
147.60226106643677,105.133,130,47.96990200447745,43.96485600000001,4.005046004477435,0.0,47.96990200447745,24.867000000000004,1922.5579999999998,-145.55712809525417
149.63610076904297,105.169,130,47.95798159726641,43.901208000000004,4.056773597266407,0.0,47.95798159726641,24.831000000000003,1947.3889999999997,-147.60202048278205
151.67490983009338,105.204,130,47.947756278543665,43.83932800000001,4.108428278543655,0.0,47.947756278543665,24.796000000000006,1972.1849999999997,-149.63587001235393
153.7178716659546,105.241,130,47.933917881937084,43.773912,4.16000588193708,0.0,47.933917881937084,24.759,1996.9439999999997,-151.67466912938892
155.76191306114197,105.276,130,47.92354257381879,43.71203200000001,4.2115105738187815,0.0,47.92354257381879,24.724000000000004,2021.6679999999997,-153.71764696404054
157.7923538684845,105.313,130,47.90955418781665,43.646615999999995,4.26293818781666,0.0,47.90955418781665,24.686999999999998,2046.3549999999996,-155.76167857576235
159.8381688594818,105.348,130,47.899028890302816,43.584736,4.3142928903028155,0.0,47.899028890302816,24.652,2071.0069999999996,-157.79213489700697
161.88286423683167,105.384,130,47.8866605980912,43.521088,4.365572598091198,0.0,47.8866605980912,24.616,2095.6229999999996,-159.83794647646326
163.9258313179016,105.419,130,47.87598739436786,43.459208000000004,4.416779394367857,0.0,47.87598739436786,24.581000000000003,2120.2039999999997,-161.8826507256375
165.9674210548401,105.453,130,47.867011362318834,43.39909599999999,4.46791536231884,0.0,47.867011362318834,24.546999999999997,2144.7509999999997,-163.92562645841903
168.01199173927307,105.489,130,47.85442433557204,43.33544799999999,4.518976335572051,0.0,47.85442433557204,24.510999999999996,2169.2619999999997,-165.96720678442028
170.0481777191162,105.523,130,47.8453024804996,43.27533600000001,4.569966480499587,0.0,47.8453024804996,24.477000000000004,2193.7389999999996,-168.0117917959367
172.0983648300171,105.559,130,47.83256963072935,43.211688,4.620881630729349,0.0,47.83256963072935,24.441000000000003,2218.1799999999994,-170.04796853641983
174.14477729797363,105.592,130,47.82507203581949,43.153344000000004,4.671728035819488,0.0,47.82507203581949,24.408,2242.5879999999993,-172.09817533251672
176.19021344184875,105.627,130,47.81396552939791,43.09146400000001,4.722501529397902,0.0,47.81396552939791,24.373000000000005,2266.9609999999993,-174.14457864902874
178.23254656791687,105.661,130,47.80455619465064,43.031352,4.773204194650641,0.0,47.80455619465064,24.339,2291.2999999999993,-176.1900226798322
180.27675032615662,105.695,130,47.79507603157772,42.971240000000016,4.823836031577706,0.0,47.79507603157772,24.305000000000007,2315.604999999999,-178.23235796899917
182.31506037712097,105.729,130,47.7855250401791,42.911128000000005,4.874397040179097,0.0,47.7855250401791,24.271,2339.8759999999993,-180.27656383580344
184.35720348358154,105.763,130,47.77590322045481,42.851015999999994,4.924887220454813,0.0,47.77590322045481,24.236999999999995,2364.1129999999994,-182.31487595254
186.38396954536438,105.797,130,47.76621057240486,42.790904000000005,4.975306572404853,0.0,47.76621057240486,24.203000000000003,2388.3159999999993,-184.35702106445996
188.42358994483948,105.831,130,47.75644709602921,42.730791999999994,5.02565509602922,0.0,47.75644709602921,24.168999999999997,2412.484999999999,-186.3837891008669
190.46871161460876,105.864,130,47.74838287451396,42.672447999999996,5.075934874513961,0.0,47.74838287451396,24.135999999999996,2436.620999999999,-188.42341668803672
192.5062539577484,105.899,130,47.736709741486976,42.610568,5.126141741486979,0.0,47.736709741486976,24.101,2460.7219999999993,-190.46852980233368
194.54938888549805,105.932,130,47.72850386332037,42.552223999999995,5.176279863320372,0.0,47.72850386332037,24.067999999999998,2484.7899999999995,-192.5060843350105
196.59025883674622,105.966,130,47.718459156828104,42.49211200000001,5.22634715682809,0.0,47.718459156828104,24.034000000000006,2508.8239999999996,-194.5492159369491
198.6490478515625,105.999,130,47.71011370519619,42.43376800000001,5.276345705196182,0.0,47.71011370519619,24.001000000000005,2532.825,-196.59009271463108
200.70251727104187,106.034,130,47.69815934205254,42.37188799999999,5.326271342052551,0.0,47.69815934205254,23.965999999999994,2556.7909999999997,-198.64887346411348
202.73579382896423,106.066,130,47.691442316955346,42.315312,5.376130316955344,0.0,47.691442316955346,23.933999999999997,2580.725,-200.70235943014265
204.79147696495056,106.101,130,47.67934838034642,42.253432000000004,5.425916380346412,0.0,47.67934838034642,23.899,2604.624,-202.73562292341427
206.8331859111786,106.133,130,47.67249178178392,42.19685600000001,5.475635781783905,0.0,47.67249178178392,23.867000000000004,2628.491,-204.79132225089992
208.8737711906433,106.165,130,47.665568521267815,42.14027999999999,5.5252885212678216,0.0,47.665568521267815,23.834999999999994,2652.326,-206.83303270860165
210.91154742240906,106.199,130,47.65503843242607,42.080168,5.574870432426064,0.0,47.65503843242607,23.801000000000002,2676.127,-208.87360998562437
212.9648356437683,106.231,130,47.647977681630735,42.02359200000001,5.624385681630729,0.0,47.647977681630735,23.769000000000005,2699.8959999999997,-210.9113971628608
215.02481079101562,106.265,130,47.637310102509716,41.96348,5.67383010250972,0.0,47.637310102509716,23.735,2723.631,-212.96467752248046
217.06970882415771,106.296,130,47.63188194462117,41.90867199999999,5.7232099446211855,0.0,47.63188194462117,23.703999999999994,2747.335,-215.0246679797493
219.11447024345398,106.329,130,47.622849041593035,41.85032800000001,5.772521041593024,0.0,47.622849041593035,23.671000000000006,2771.006,-217.06955821794736
221.17272567749023,106.361,130,47.61551747661128,41.79375199999999,5.821765476611288,0.0,47.61551747661128,23.638999999999996,2794.645,-219.11432556015316
223.21201252937317,106.393,130,47.60811924967597,41.737176,5.8709432496759755,0.0,47.60811924967597,23.607,2818.252,-221.17258231603026
225.27090573310852,106.424,130,47.60242444397313,41.68236799999999,5.920056443973135,0.0,47.60242444397313,23.575999999999993,2841.828,-223.21187491728386
227.30505776405334,106.455,130,47.59666505950277,41.62756,5.96910505950277,0.0,47.59666505950277,23.545,2865.373,-225.27076935250923
229.36113023757935,106.486,130,47.59084109626487,41.572751999999994,6.018089096264877,0.0,47.59084109626487,23.513999999999996,2888.887,-227.3049226060169
231.41664338111877,106.517,130,47.584952554259466,41.51794400000001,6.0670085542594565,0.0,47.584952554259466,23.483000000000004,2912.3700000000003,-229.36099628005778
233.4639801979065,106.547,130,47.58076951667256,41.464904000000004,6.115865516672559,0.0,47.58076951667256,23.453000000000003,2935.8230000000003,-231.41651488163902
235.49670219421387,106.578,130,47.57475390031813,41.410095999999996,6.164657900318135,0.0,47.57475390031813,23.421999999999997,2959.2450000000003,-233.4638485612436
237.54665875434875,106.608,130,47.57044378838223,41.35705599999999,6.213387788382232,0.0,47.57044378838223,23.391999999999996,2982.637,-235.49657590323525
239.59087467193604,106.639,130,47.56430109767881,41.302248000000006,6.262053097678804,0.0,47.56430109767881,23.361000000000004,3005.998,-237.5465293671171
241.6431360244751,106.669,130,47.5598639113939,41.249208,6.310655911393897,0.0,47.5598639113939,23.331000000000003,3029.329,-239.59075052191673
243.6875548362732,106.7,130,47.55359414634146,41.194399999999995,6.359194146341465,0.0,47.55359414634146,23.299999999999997,3052.6290000000004,-241.64300881239805
245.73946356773376,106.729,130,47.55079996889361,41.143128000000004,6.407671968893603,0.0,47.55079996889361,23.271,3075.9000000000005,-243.68743682510976
247.77098488807678,106.759,130,47.546175295864266,41.090088,6.456087295864265,0.0,47.546175295864266,23.241,3099.1410000000005,-245.73934248818117
249.8137674331665,106.79,130,47.539718044067385,41.035279999999986,6.504438044067399,0.0,47.539718044067385,23.209999999999994,3122.3510000000006,-247.77086079563657
251.84407567977905,106.819,130,47.5367363798751,40.984007999999996,6.552728379875105,0.0,47.5367363798751,23.180999999999997,3145.5320000000006,-249.81365228255228
253.89915108680725,106.85,130,47.53015413691529,40.92920000000001,6.600954136915284,0.0,47.53015413691529,23.150000000000006,3168.6820000000007,-251.84395358405772
255.93738889694214,106.879,130,47.527047481560025,40.87792799999999,6.649119481560035,0.0,47.527047481560025,23.120999999999995,3191.803000000001,-253.89903777784477
257.9772162437439,106.908,130,47.52388041380936,40.826656,6.697224413809358,0.0,47.52388041380936,23.092,3214.895000000001,-255.93727648391427
