time,temp,output,slope
0.1848905086517334,246.247,0.0
1.3008601665496826,246.229,0.0
2.417703628540039,246.21,0.0
3.538623332977295,246.192,0.0
4.658252000808716,246.174,0.0
5.776021957397461,246.153,0.0
6.908409357070923,246.135,0.0
8.036870241165161,246.117,0.0
9.158215045928955,246.098,0.0
10.272960901260376,246.079,0.0
11.384451866149902,246.061,0.0
12.503005743026733,246.043,0.0
13.63347840309143,246.024,0.0
14.749286413192749,246.006,0.0
15.869897365570068,245.987,0.0
16.992061138153076,245.968,0.0
18.115652799606323,245.95,0.0
19.238362312316895,245.932,0.0
20.353764533996582,245.914,0.0
21.472790002822876,245.893,0.0
22.59245252609253,245.875,0.0
23.71177363395691,245.857,0.0
24.827730894088745,245.839,0.0
25.946749448776245,245.82,0.0
27.06796622276306,245.802,0.0
28.186825037002563,245.782,0.0
29.29953908920288,245.764,0.0
30.415555000305176,245.747,0.0
31.53457760810852,245.728,0.0
32.65623998641968,245.71,0.0
33.786340951919556,245.69,0.0
34.898621559143066,245.672,0.0
36.0287561416626,245.654,0.0
37.14695930480957,245.636,0.0
38.26431703567505,245.618,0.0
39.378684759140015,245.599,0.0
40.494614362716675,245.58,0.0
41.61605501174927,245.561,0.0
42.741873025894165,245.543,0.0
43.86517906188965,245.525,0.0
44.98561358451843,245.505,0.0
46.10477375984192,245.487,0.0
47.225510120391846,245.469,0.0
48.34702682495117,245.451,0.0
49.4703848361969,245.432,0.0
50.58841013908386,245.413,0.0
51.70704460144043,245.395,0.0
52.830832958221436,245.377,0.0
53.94262456893921,245.358,0.0
55.0588161945343,245.34,0.0
56.17373824119568,245.322,0.0
57.29726552963257,245.303,0.0
58.41709923744202,245.284,0.0
59.54081439971924,245.266,0.0
60.65948247909546,245.248,0.0
61.78161001205444,245.228,0.0
62.90157508850098,245.211,0.0
64.02472043037415,245.192,0.0
65.14756798744202,245.174,0.0
66.26241850852966,245.156,0.0
67.3850200176239,245.136,0.0
68.50913763046265,245.117,0.0
69.63607239723206,245.099,0.0
70.74865865707397,245.081,0.0
71.86568117141724,245.064,0.0
72.98336911201477,245.043,0.0
74.10526823997498,245.025,0.0
75.22467684745789,245.007,0.0
76.3465142250061,244.989,0.0
77.46436643600464,244.971,0.0
78.58558440208435,244.95,0.0
79.70798754692078,244.933,0.0
80.8293251991272,244.915,0.0
81.94780015945435,244.897,0.0
83.06356358528137,244.879,0.0
84.18243384361267,244.858,0.0
85.30276203155518,244.841,0.0
86.42350482940674,244.822,0.0
87.53858876228333,244.804,0.0
88.65618968009949,244.783,0.0
89.78019285202026,244.764,0.0
90.8991391658783,244.749,0.0
92.02061128616333,244.73,0.0
93.13870739936829,244.712,0.0
94.25600457191467,244.694,0.0
95.37475347518921,244.676,0.0
96.49852728843689,244.657,0.0
97.62036967277527,244.638,0.0
98.74524235725403,244.62,0.0
99.86823201179504,244.601,0.0
100.98044991493225,244.583,0.0
102.10070610046387,244.564,0.0
103.22269463539124,244.546,0.0
104.33623719215393,244.529,0.0
105.45511412620544,244.511,0.0
106.5685670375824,244.493,0.0
107.69565725326538,244.473,0.0
108.81654763221741,244.454,0.0
109.93690252304077,244.436,0.0
111.06064343452454,244.419,0.0
112.18032670021057,244.399,0.0
113.30288529396057,244.382,0.0
114.42288899421692,244.363,0.0
115.54336500167847,244.345,0.0
116.6613392829895,244.327,0.0
117.79043626785278,244.307,0.0
118.91158962249756,244.29,0.0
120.03352737426758,244.271,0.0
121.14603018760681,244.254,0.0
122.26118469238281,244.236,0.0
123.37944006919861,244.218,0.0
124.5095705986023,244.198,0.0
125.62664985656738,244.18,0.0
126.75269317626953,244.163,0.0
127.87330079078674,244.145,0.0
128.99217462539673,244.125,0.0
130.11831140518188,244.107,0.0
131.2385790348053,244.088,0.0
132.35712218284607,244.072,0.0
133.4770872592926,244.054,0.0
134.59144616127014,244.035,0.0
135.71780920028687,244.016,0.0
136.83765077590942,243.998,0.0
137.9551646709442,243.981,0.0
139.0748152732849,243.963,0.0
140.2062544822693,243.942,0.0
141.32505059242249,243.925,0.0
142.45039772987366,243.907,0.0
143.5818841457367,243.887,0.0
144.71022629737854,243.871,0.0
145.83178520202637,243.852,0.0
146.95063591003418,243.834,0.0
148.07215547561646,243.817,0.0
149.19372630119324,243.797,0.0
150.30889415740967,243.779,0.0
151.43084478378296,243.762,0.0
152.54341959953308,243.744,0.0
153.66446828842163,243.725,0.0
154.78140783309937,243.708,0.0
155.90087366104126,243.689,0.0
157.02687191963196,243.671,0.0
158.16101145744324,243.654,0.0
159.2727017402649,243.636,0.0
160.38717198371887,243.617,0.0
161.50250697135925,243.599,0.0
162.63357281684875,243.58,0.0
163.7545075416565,243.563,0.0
164.86993217468262,243.545,0.0
165.98220229148865,243.528,0.0
167.10182166099548,243.508,0.0
168.22892999649048,243.49,0.0
169.35295486450195,243.472,0.0
170.4779646396637,243.454,0.0
171.59929132461548,243.436,0.0
172.73055291175842,243.418,0.0
173.84846329689026,243.401,0.0
174.9737033843994,243.383,0.0
176.09371304512024,243.363,0.0
177.214861869812,243.346,0.0
178.33561873435974,243.328,0.0
179.45620942115784,243.31,0.0
180.57625031471252,243.293,0.0
181.6977822780609,243.273,0.0
182.81477236747742,243.256,0.0
183.93673014640808,243.238,0.0
185.0529592037201,243.22,0.0
186.17153930664062,243.202,0.0
187.29100942611694,243.182,0.0
188.4087450504303,243.165,0.0
189.52831292152405,243.147,0.0
190.65432000160217,243.129,0.0
191.77213716506958,243.111,0.0
192.8896586894989,243.093,0.0
194.01787447929382,243.075,0.0
195.14639163017273,243.058,0.0
196.26029586791992,243.039,0.0
197.37479734420776,243.021,0.0
198.4877097606659,243.003,0.0
199.60953044891357,242.984,0.0
200.720477104187,242.966,0.0
201.84121108055115,242.948,0.0
202.96939635276794,242.93,0.0
204.09464812278748,242.911,0.0
205.22062993049622,242.894,0.0
206.33909153938293,242.876,0.0
207.46018528938293,242.858,0.0
208.58112716674805,242.839,0.0
209.70028710365295,242.821,0.0
210.82249355316162,242.803,0.0
211.9519076347351,242.784,0.0
213.07044315338135,242.767,0.0
214.18648838996887,242.75,0.0
215.30082845687866,242.731,0.0
216.41756296157837,242.713,0.0
217.532972574234,242.694,0.0
218.66115140914917,242.677,0.0
219.7814371585846,242.659,0.0
220.90080213546753,242.64,0.0
222.0203320980072,242.622,0.0
223.14732241630554,242.605,0.0
224.26792907714844,242.587,0.0
225.38522958755493,242.57,0.0
226.49974370002747,242.549,0.0
227.61849808692932,242.532,0.0
228.7385733127594,242.514,0.0
229.85865473747253,242.496,0.0
230.97381210327148,242.479,0.0
232.0904242992401,242.459,0.0
233.21195936203003,242.442,0.0
234.33199334144592,242.424,0.0
235.44757342338562,242.406,0.0
236.5637571811676,242.389,0.0
237.67822360992432,242.371,0.0
238.80245637893677,242.352,0.0
239.925226688385,242.334,0.0
241.04370260238647,242.317,0.0
242.1645450592041,242.299,0.0
243.28398203849792,242.281,0.0
244.40788340568542,242.262,0.0
245.52572345733643,242.244,0.0
246.64377903938293,242.227,0.0
247.76944398880005,242.209,0.0
248.8877716064453,242.192,0.0
250.00467467308044,242.173,0.0
251.11889123916626,242.155,0.0
252.23305368423462,242.138,0.0
253.35035061836243,242.12,0.0
254.47968125343323,242.102,0.0
255.5990378856659,242.084,0.0
256.73091101646423,242.066,0.0
257.85284328460693,242.049,0.0
258.9703719615936,242.03,0.0
260.09193754196167,242.014,0.0
261.2106695175171,241.994,0.0
262.3347315788269,241.977,0.0
263.4546494483948,241.959,0.0
264.56842017173767,241.942,0.0
265.68810176849365,241.924,0.0
266.8095200061798,241.906,0.0
267.92425632476807,241.887,0.0
269.0415472984314,241.871,0.0
270.15794491767883,241.853,0.0
271.27952551841736,241.836,0.0
272.3980824947357,241.817,0.0
273.5147466659546,241.799,0.0
274.6326584815979,241.782,0.0
275.7575533390045,241.764,0.0
276.8772099018097,241.747,0.0
277.99233174324036,241.729,0.0
279.1117558479309,241.71,0.0
280.2366602420807,241.693,0.0
281.36131858825684,241.675,0.0
282.48519802093506,241.658,0.0
283.6036341190338,241.639,0.0
284.731810092926,241.622,0.0
285.8480362892151,241.604,0.0
286.96525406837463,241.586,0.0
288.0815088748932,241.569,0.0
289.1945996284485,241.55,0.0
290.3116681575775,241.532,0.0
291.42945981025696,241.515,0.0
292.5491569042206,241.498,0.0
293.6769480705261,241.48,0.0
294.79107451438904,241.463,0.0
295.9138083457947,241.444,0.0
297.0341739654541,241.426,0.0
298.1514325141907,241.409,0.0
299.26941752433777,241.391,0.0
300.39035058021545,241.374,0.0
301.51300048828125,241.356,0.0
302.632196187973,241.339,0.0
303.7480776309967,241.321,0.0
304.88073110580444,241.303,0.0
305.9978132247925,241.284,0.0
307.1140294075012,241.267,0.0
308.2371690273285,241.25,0.0
309.3528480529785,241.233,0.0
310.46791434288025,241.215,0.0
311.5857083797455,241.198,0.0
312.712943315506,241.179,0.0
313.83536744117737,241.161,0.0
314.96653413772583,241.144,0.0
316.08822870254517,241.127,0.0
317.208927154541,241.108,0.0
318.3235967159271,241.091,0.0
319.4454598426819,241.073,0.0
320.5627660751343,241.056,0.0
321.68183159828186,241.039,0.0
322.8095109462738,241.019,0.0
323.92662596702576,241.003,0.0
325.04341173171997,240.986,0.0
326.17059302330017,240.969,0.0
327.2869806289673,240.951,0.0
328.41071486473083,240.933,0.0
329.5281677246094,240.916,0.0
330.6491611003876,240.898,0.0
331.7719748020172,240.881,0.0
332.8939311504364,240.864,0.0
334.016019821167,240.845,0.0
335.1397316455841,240.828,0.0
336.26695561408997,240.812,0.0
337.39791464805603,240.795,0.0
338.51404571533203,240.775,0.0
339.6366238594055,240.758,0.0
340.76172041893005,240.742,0.0
341.88282656669617,240.724,0.0
343.00840878486633,240.705,0.0
344.12752294540405,240.689,0.0
345.25186133384705,240.671,0.0
346.37117862701416,240.654,0.0
347.48552417755127,240.638,0.0
348.59950852394104,240.619,0.0
349.7179424762726,240.602,0.0
350.85057067871094,240.585,0.0
351.96921277046204,240.568,0.0
353.0882685184479,240.55,0.0
354.2203323841095,240.533,0.0
355.3380687236786,240.515,0.0
356.4583706855774,240.499,0.0
357.5791223049164,240.481,0.0
358.69556045532227,240.464,0.0
359.81263256073,240.446,0.0
360.9304189682007,240.429,0.0
362.05818605422974,240.413,0.0
363.1797742843628,240.395,0.0
364.2949471473694,240.378,0.0
365.41442465782166,240.36,0.0
366.5320153236389,240.343,0.0
367.651647567749,240.326,0.0
368.7686688899994,240.309,0.0
369.8859977722168,240.292,0.0
371.005184173584,240.274,0.0
372.1349217891693,240.257,0.0
373.25073409080505,240.24,0.0
374.3645706176758,240.224,0.0
375.4836506843567,240.206,0.0
376.60084414482117,240.19,0.0
378.84875082969666,240.154,0.0
379.9662334918976,240.138,0.0
381.0862805843353,240.121,0.0
382.2082703113556,240.102,0.0
383.3427710533142,240.086,0.0
384.4759178161621,240.069,0.0
385.60213804244995,240.051,0.0
386.7204325199127,240.033,0.0
387.84069204330444,240.017,0.0
388.961238861084,240.0,0.0
390.0761103630066,239.984,0.0
391.18953347206116,239.967,0.0
392.3056209087372,239.949,0.0
393.4246096611023,239.931,0.0
394.54694175720215,239.915,0.0
395.66471791267395,239.899,0.0
396.7969539165497,239.882,0.0
397.92135882377625,239.864,0.0
399.0437924861908,239.846,0.0
400.1620614528656,239.83,0.0
401.28171730041504,239.814,0.0
403.5195128917694,239.779,0.0
404.6360967159271,239.763,0.0
405.7508313655853,239.746,0.0
406.87885880470276,239.729,0.0
407.9926874637604,239.713,0.0
409.11093282699585,239.695,0.0
410.2259681224823,239.678,0.0
411.34591007232666,239.662,0.0
412.4661726951599,239.644,0.0
413.5992202758789,239.628,0.0
414.7202088832855,239.611,0.0
415.84059882164,239.594,0.0
416.9622309207916,239.577,0.0
418.0822515487671,239.56,0.0
419.1978032588959,239.544,0.0
420.31611347198486,239.526,0.0
421.43547797203064,239.509,0.0
422.5586853027344,239.492,0.0
423.67313718795776,239.476,0.0
424.79049468040466,239.459,0.0
425.91087579727173,239.441,0.0
427.02751445770264,239.424,0.0
428.1457931995392,239.407,0.0
429.2658226490021,239.39,0.0
430.3883192539215,239.373,0.0
431.5106644630432,239.354,0.0
432.6309452056885,239.336,0.0
433.7491834163666,239.319,0.0
434.86594700813293,239.303,0.0
435.98300647735596,239.285,0.0
437.114942073822,239.267,0.0
438.2296447753906,239.249,0.0
439.3398132324219,239.232,0.0
440.46083092689514,239.215,0.0
441.576171875,239.198,0.0
442.6961176395416,239.181,0.0
443.8175890445709,239.161,0.0
444.94128704071045,239.145,0.0
446.0640947818756,239.128,0.0
447.18778371810913,239.11,0.0
448.30388379096985,239.093,0.0
449.42863297462463,239.074,0.0
450.5439100265503,239.057,0.0
451.6627616882324,239.041,0.0
452.787846326828,239.024,0.0
453.90743923187256,239.006,0.0
455.02241826057434,238.988,0.0
456.1407940387726,238.971,0.0
457.2615547180176,238.954,0.0
458.375599861145,238.937,0.0
459.49970865249634,238.92,0.0
460.617068529129,238.902,0.0
461.7325472831726,238.886,0.0
462.8519513607025,238.869,0.0
463.97188234329224,238.852,0.0
465.0859069824219,238.836,0.0
466.2057671546936,238.818,0.0
467.32956624031067,238.802,0.0
468.44854736328125,238.784,0.0
469.5665783882141,238.768,0.0
470.6816990375519,238.751,0.0
471.80262875556946,238.734,0.0
472.92653155326843,238.716,0.0
474.0526418685913,238.701,0.0
475.17688179016113,238.684,0.0
476.2889070510864,238.668,0.0
477.4086422920227,238.65,0.0
478.5278842449188,238.633,0.0
479.6470239162445,238.618,0.0
480.76709628105164,238.601,0.0
481.88053369522095,238.585,0.0
483.0046923160553,238.568,0.0
484.11651968955994,238.55,0.0
485.2404086589813,238.535,0.0
486.3560607433319,238.518,0.0
487.4832284450531,238.503,0.0
488.61130380630493,238.487,0.0
489.7307527065277,238.468,0.0
490.8495202064514,238.454,0.0
491.9727303981781,238.436,0.0
493.0942430496216,238.421,0.0
494.2124328613281,238.403,0.0
495.3307957649231,238.387,0.0
496.44922494888306,238.371,0.0
498.6923394203186,238.34,0.0
500.94049310684204,238.305,0.0
502.0571074485779,238.289,0.0
503.1803255081177,238.273,0.0
504.30150532722473,238.258,0.0
505.41643595695496,238.241,0.0
506.5377104282379,238.224,0.0
507.6568739414215,238.208,0.0
508.77328276634216,238.193,0.0
509.90202713012695,238.178,0.0
511.02755403518677,238.159,0.0
512.1429305076599,238.143,0.0
513.2547814846039,238.128,0.0
514.3720788955688,238.112,0.0
515.4828605651855,238.097,0.0
516.6109049320221,238.079,0.0
517.7347009181976,238.063,0.0
518.8495371341705,238.047,0.0
519.9647026062012,238.031,0.0
521.0837497711182,238.016,0.0
522.1996092796326,238.0,0.0
523.3168711662292,237.982,0.0
524.4287469387054,237.967,0.0
525.5474941730499,237.951,0.0
526.6739971637726,237.935,0.0
527.8007609844208,237.919,0.0
528.9135277271271,237.904,0.0
530.0288877487183,237.888,0.0
531.1456696987152,237.871,0.0
532.26655626297,237.855,0.0
533.3856909275055,237.84,0.0
534.5031142234802,237.825,0.0
535.6296417713165,237.807,0.0
536.7428107261658,237.791,0.0
537.8596243858337,237.775,0.0
538.9714779853821,237.76,0.0
540.1027183532715,237.744,0.0
541.2185912132263,237.728,0.0
542.3315424919128,237.712,0.0
543.4547147750854,237.696,0.0
544.5690608024597,237.68,0.0
545.693644285202,237.665,0.0
546.8159427642822,237.65,0.0
547.9339261054993,237.632,0.0
549.0515556335449,237.617,0.0
550.1788561344147,237.602,0.0
551.2928974628448,237.585,0.0
552.4080426692963,237.571,0.0
553.5232768058777,237.553,0.0
554.6447386741638,237.537,0.0
555.7745306491852,237.522,0.0
556.8885099887848,237.507,0.0
558.0109164714813,237.491,0.0
559.1298086643219,237.473,0.0
560.2449254989624,237.459,0.0
561.3614046573639,237.443,0.0
562.479122877121,237.428,0.0
563.5997304916382,237.412,0.0
564.7150137424469,237.397,0.0
565.8320059776306,237.379,0.0
566.9517815113068,237.364,0.0
568.0725677013397,237.349,0.0
569.1951739788055,237.333,0.0
570.3143980503082,237.318,0.0
571.432802438736,237.301,0.0
572.5445816516876,237.285,0.0
573.6652879714966,237.271,0.0
574.7849369049072,237.255,0.0
575.9013376235962,237.239,0.0
577.023265838623,237.223,0.0
578.1432225704193,237.207,0.0
579.2607567310333,237.192,0.0
580.3837263584137,237.176,0.0
581.5059041976929,237.16,0.0
582.6247406005859,237.144,0.0
583.7416050434113,237.128,0.0
584.8632164001465,237.113,0.0
585.9849915504456,237.098,0.0
587.1028273105621,237.082,0.0
588.2233974933624,237.065,0.0
589.3475458621979,237.051,0.0
590.4701409339905,237.036,0.0
591.5968654155731,237.02,0.0
592.7121577262878,237.004,0.0
593.835860490799,236.987,0.0
594.9643697738647,236.972,0.0
596.0845251083374,236.957,0.0
597.2066025733948,236.941,0.0
598.3224110603333,236.926,0.0
599.4396631717682,236.909,0.0
600.559871673584,236.893,0.0,-0.015655872115662398
601.7094268798828,236.879,0.0,-0.015650907299792485
602.8383402824402,236.861,0.0,-0.015645961650463287
603.9718389511108,236.846,0.0,-0.015640996556465447
605.1031014919281,236.832,0.0,-0.015635974676537386
606.2325839996338,236.814,0.0,-0.015630971361600084
607.353837966919,236.799,0.0,-0.015625989826288902
609.6108765602112,236.769,0.0,-0.015615891790166644
610.7293810844421,236.753,0.0,-0.015610835477864475
611.8449482917786,236.736,0.0,-0.015605804408225676
612.9688053131104,236.722,0.0,-0.015600722927139304
614.0876286029816,236.707,0.0,-0.015595609368166258
615.2045073509216,236.691,0.0,-0.015590498296360961
616.3226270675659,236.677,0.0,-0.015585337994857961
617.4428563117981,236.659,0.0,-0.015580219523842531
618.5675210952759,236.644,0.0,-0.015575085566000796
619.7008953094482,236.628,0.0,-0.015569933330691298
620.8198983669281,236.613,0.0,-0.015564748971358497
621.9394264221191,236.597,0.0,-0.015559553139862957
623.0625267028809,236.582,0.0,-0.015554381173688151
624.182775259018,236.566,0.0,-0.015549196878605329
625.304744720459,236.552,0.0,-0.015543962892758225
626.4237585067749,236.536,0.0,-0.015538718409045825
627.5379374027252,236.519,0.0,-0.015533501296154956
628.6567723751068,236.504,0.0,-0.015528253985530103
629.7785806655884,236.49,0.0,-0.015522995137500913
630.8966519832611,236.473,0.0,-0.015517746417787507
632.0096430778503,236.457,0.0,-0.015512471328818373
633.1293983459473,236.442,0.0,-0.015507185752682137
634.2510228157043,236.427,0.0,-0.01550187005801667
635.3664357662201,236.411,0.0,-0.015496579691245517
636.4920115470886,236.396,0.0,-0.015491261137074207
637.6146879196167,236.381,0.0,-0.015485910466663129
638.7307367324829,236.364,0.0,-0.01548057028343051
639.852872133255,236.348,0.0,-0.01547522053943648
640.9843451976776,236.333,0.0,-0.01546985951120009
642.1154696941376,236.317,0.0,-0.015464505703051197
643.2435314655304,236.301,0.0,-0.01545915870728228
644.3761515617371,236.287,0.0,-0.015453760467812026
645.5106463432312,236.271,0.0,-0.01544834850848246
646.623452425003,236.255,0.0,-0.015442967442104044
647.7374753952026,236.239,0.0,-0.015437580309982907
648.8539645671844,236.224,0.0,-0.015432167527366144
649.9703936576843,236.209,0.0,-0.015426729096154614
651.0947012901306,236.194,0.0,-0.015421280979330036
652.2155358791351,236.178,0.0,-0.015415844516866199
653.3349289894104,236.162,0.0,-0.01541040156586705
654.4518511295319,236.146,0.0,-0.015404951558552706
655.5758712291718,236.131,0.0,-0.01539949593652333
656.6998567581177,236.116,0.0,-0.015394015162104507
657.8200886249542,236.1,0.0,-0.01538852945658229
658.938188791275,236.084,0.0,-0.015383055806750255
660.0557637214661,236.069,0.0,-0.015377577054573885
661.1769280433655,236.054,0.0,-0.01537207272392036
662.2932114601135,236.038,0.0,-0.015366564407623365
663.4120788574219,236.023,0.0,-0.015361069192855976
664.5259709358215,236.008,0.0,-0.015355533661155375
665.6451241970062,235.991,0.0,-0.01535002981064677
666.7701561450958,235.976,0.0,-0.015344500432944656
669.0104296207428,235.945,0.0,-0.01533344970034606
670.1260099411011,235.929,0.0,-0.015327945520197984
671.2428166866302,235.914,0.0,-0.015322418001307373
672.3634493350983,235.898,0.0,-0.015316888730338468
673.4838874340057,235.883,0.0,-0.015311319529291222
674.6159338951111,235.868,0.0,-0.01530578138006618
675.7358088493347,235.851,0.0,-0.015300258384641307
676.8587930202484,235.836,0.0,-0.015294713301376713
677.9736504554749,235.821,0.0,-0.015289148057965808
679.0865845680237,235.806,0.0,-0.015283564518118398
680.2080764770508,235.79,0.0,-0.01527803381012059
681.3267824649811,235.774,0.0,-0.015272482332628583
682.4584565162659,235.758,0.0,-0.015266925252775818
683.5758035182953,235.744,0.0,-0.015261330629488874
684.6955580711365,235.728,0.0,-0.0152557358613935
685.8149371147156,235.713,0.0,-0.015250177631035233
