time,temp,output,slope,
0.112986326,133.348,55,,
1.23955369,133.325,55,,
2.359699249,133.321,55,,
3.481790304,133.326,55,,
4.606417894,133.335,55,,
5.736961842,133.347,55,,
6.853050947,133.362,55,,
7.981783152,133.376,55,,
9.101485491,133.392,55,,
10.22593451,133.408,55,,
11.35395002,133.427,55,,
12.48240972,133.444,55,,
13.61024714,133.462,55,,
14.72625566,133.48,55,,
15.84262681,133.497,55,,
16.97246122,133.517,55,,
18.10208178,133.536,55,,
19.23212576,133.554,55,,
20.35747337,133.574,55,,
21.48297763,133.592,55,,
22.60465336,133.61,55,,
23.72663641,133.628,55,,
24.84368443,133.646,55,,
25.95882034,133.666,55,,
27.07243109,133.683,55,,
28.1867516,133.701,55,,
29.31023026,133.718,55,,
30.43694139,133.736,55,,
31.56497717,133.755,55,,
32.69206762,133.771,55,,
33.81657457,133.789,55,,
34.93600893,133.806,55,,
36.05154848,133.824,55,,
37.17502165,133.841,55,,
38.30319977,133.857,55,,
39.43089843,133.874,55,,
40.5554657,133.891,55,,
41.67999697,133.908,55,,
42.79204702,133.924,55,,
43.9197793,133.94,55,,
45.04582095,133.955,55,,
46.17155647,133.973,55,,
47.29495621,133.988,55,,
48.4220345,134.004,55,,
49.54482889,134.019,55,,
50.66888833,134.035,55,,
51.79059863,134.051,55,,
52.91351032,134.065,55,,
54.03619146,134.08,55,,
55.16252995,134.097,55,,
56.29219055,134.111,55,,
57.4163425,134.126,55,,
58.54306531,134.14,55,,
59.66527104,134.156,55,,
60.79501772,134.17,55,,
61.9109776,134.185,55,,
63.03116322,134.199,55,,
64.1540556,134.214,55,,
65.2797091,134.228,55,,
66.4056654,134.242,55,,
67.52939057,134.256,55,,
68.65569544,134.271,55,,
69.77171779,134.284,55,,
70.88755774,134.298,55,,
72.01725554,134.312,55,,
73.13229609,134.325,55,,
74.24743509,134.338,55,,
75.35988545,134.352,55,,
76.47971225,134.365,55,,
77.60971475,134.378,55,,
78.73951411,134.391,55,,
79.85549736,134.405,55,,
80.98235726,134.418,55,,
82.11325288,134.431,55,,
83.24235797,134.443,55,,
84.37379408,134.457,55,,
85.48969698,134.47,55,,
86.60849833,134.482,55,,
87.73205733,134.495,55,,
88.86154819,134.508,55,,
89.97729111,134.52,55,,
91.10538101,134.532,55,,
92.23277211,134.544,55,,
93.34968543,134.556,55,,
94.4775033,134.569,55,,
95.60918736,134.581,55,,
96.72458982,134.593,55,,
97.85576916,134.606,55,,
98.97864342,134.617,55,,
100.1060815,134.629,55,,
101.2340515,134.64,55,,
102.3615587,134.653,55,,
103.4903686,134.664,55,,
104.6139333,134.676,55,,
105.7413695,134.687,55,,
106.8659751,134.699,55,,
107.9912097,134.711,55,,
109.1216061,134.722,55,,
110.2369509,134.733,55,,
111.3637536,134.745,55,,
112.4836442,134.756,55,,
113.5964124,134.767,55,,
114.7170062,134.778,55,,
115.8406596,134.789,55,,
116.9668562,134.8,55,,
118.088047,134.811,55,,
119.2117395,134.822,55,,
120.3342798,134.832,55,,
121.4498043,134.843,55,,
122.5701246,134.854,55,,
123.6856167,134.865,55,,
124.8089478,134.875,55,,
125.9319923,134.885,55,,
127.0583103,134.896,55,,
128.187465,134.907,55,,
129.3149707,134.917,55,,
130.443903,134.927,55,,
131.5757673,134.938,55,,
132.70803,134.948,55,,
133.8397524,134.958,55,,
134.970427,134.968,55,,
136.0932031,134.978,55,,
137.2090914,134.988,55,,
138.3245549,134.998,55,,
139.4527121,135.007,55,,
140.5712388,135.018,55,,
141.6862545,135.028,55,,
142.8170648,135.037,55,,
143.934876,135.047,55,,
145.066731,135.057,55,,
146.1942682,135.066,55,,
147.3230002,135.076,55,,
148.4399354,135.085,55,,
149.5674672,135.095,55,,
150.6920662,135.104,55,,
151.8075585,135.114,55,,
152.9364853,135.123,55,,
154.0614727,135.133,55,,
155.1758099,135.142,55,,
156.2947469,135.151,55,,
157.4212327,135.16,55,,
158.5471632,135.169,55,,
159.6693263,135.179,55,,
160.7929375,135.188,55,,
161.9158573,135.197,55,,
163.0387673,135.206,55,,
164.1600003,135.215,55,,
165.2851043,135.224,55,,
166.4086435,135.233,55,,
167.5305202,135.241,55,,
168.645015,135.25,55,,
169.7596455,135.258,55,,
170.8825407,135.268,55,,
171.9989223,135.276,55,,
173.1247423,135.285,55,,
174.2389874,135.293,55,,
175.3634915,135.302,55,,
176.5068657,135.311,55,,
177.6352978,135.319,55,,
178.7665458,135.328,55,,
179.8937507,135.336,55,,
181.0224438,135.345,55,,
182.1520722,135.353,55,,
183.2845261,135.361,55,,
184.4113636,135.37,55,,
185.5281439,135.378,55,,
186.6436939,135.386,55,,
187.7592905,135.394,55,,
188.8845193,135.403,55,,
190.0021868,135.41,55,,
191.1319411,135.418,55,,
192.2601631,135.427,55,,
193.3746586,135.435,55,,
194.500262,135.443,55,,
195.6300385,135.451,55,,
196.7597084,135.458,55,,
197.8888061,135.466,55,,
199.0191019,135.474,55,,
200.1369972,135.482,55,,
201.253623,135.49,55,,
202.3733287,135.498,55,,
203.4901638,135.505,55,,
204.6200142,135.513,55,,
205.7363374,135.52,55,,
206.8662617,135.528,55,,
207.9934685,135.536,55,,
209.11519,135.543,55,,
210.2291763,135.551,55,,
211.3559556,135.558,55,,
212.4808936,135.566,55,,
213.6110625,135.573,55,,
214.7269034,135.58,55,,
215.8539059,135.588,55,,
216.9855607,135.596,55,,
218.1049666,135.602,55,,
219.2283394,135.61,55,,
220.3568006,135.617,55,,
221.4831557,135.625,55,,
222.610472,135.631,55,,
223.7254467,135.639,55,,
224.8457189,135.645,55,,
225.9699056,135.654,55,,
227.0970192,135.66,55,,
228.2259076,135.667,55,,
229.3455355,135.674,55,,
230.4751022,135.681,55,,
231.6000075,135.688,55,,
232.7212567,135.695,55,,
233.8492644,135.701,55,,
234.9672439,135.708,55,,
236.0842278,135.716,55,,
237.1998165,135.722,55,,
238.3254747,135.729,55,,
239.4530997,135.735,55,,
240.5768137,135.742,55,,
241.7001617,135.749,55,,
242.8244352,135.756,55,,
243.9457169,135.762,55,,
245.0720592,135.769,55,,
246.1932304,135.776,55,,
247.3216131,135.782,55,,
248.4462869,135.789,55,,
249.5612967,135.794,55,,
250.6796,135.802,55,,
251.7937887,135.808,55,,
252.9181025,135.814,55,,
254.0430026,135.821,55,,
255.1733484,135.827,55,,
256.2950335,135.834,55,,
257.4167619,135.84,55,,
258.5314171,135.846,55,,
259.6508291,135.852,55,,
260.7680688,135.859,55,,
261.8929572,135.865,55,,
263.0139656,135.871,55,,
264.1413038,135.877,55,,
265.2567737,135.883,55,,
266.3773153,135.889,55,,
267.4909761,135.896,55,,
268.6192958,135.902,55,,
269.7379355,135.908,55,,
270.8628304,135.913,55,,
271.99266,135.919,55,,
273.1135032,135.926,55,,
274.2377725,135.932,55,,
275.3640518,135.937,55,,
276.4885943,135.943,55,,
277.6198783,135.949,55,,
278.7450402,135.955,55,,
279.8577702,135.961,55,,
280.9803593,135.967,55,,
282.1018238,135.973,55,,
283.2244065,135.979,55,,
284.3506033,135.984,55,,
285.4723473,135.99,55,,
286.5954995,135.996,55,,
287.7205739,136.002,55,,
288.8490949,136.008,55,,
289.9733326,136.014,55,,
291.1021507,136.019,55,,
292.2330914,136.025,55,,
293.346329,136.03,55,,
294.4769161,136.036,55,,
295.5940421,136.042,55,,
296.7246902,136.047,55,,
297.8485284,136.052,55,,
298.9755337,136.058,55,,
300.1029999,136.064,55,,
301.2265012,136.069,55,,
302.3517113,136.074,55,,
303.478471,136.08,55,,
304.5992639,136.085,55,,
305.728467,136.091,55,,
306.8568406,136.096,55,,
307.9831774,136.102,55,,
309.0982807,136.107,55,,
310.2241902,136.112,55,,
311.3469052,136.117,55,,
312.469476,136.123,55,,
313.5911725,136.128,55,,
314.7093318,136.133,55,,
315.8351352,136.138,55,,
316.9637215,136.143,55,,
318.0882683,136.149,55,,
319.2129011,136.154,55,,
320.3364909,136.159,55,,
321.460645,136.164,55,,
322.5842352,136.169,55,,
323.7142861,136.174,55,,
324.8299129,136.179,55,,
325.9562371,136.184,55,,
327.083092,136.189,55,,
328.20508,136.194,55,,
329.317564,136.199,55,,
330.4416022,136.204,55,,
331.5682003,136.209,55,,
332.6963503,136.214,55,,
333.8194358,136.219,55,,
334.9491165,136.224,55,,
336.070909,136.229,55,,
337.1960094,136.234,55,,
338.3106501,136.239,55,,
339.4350538,136.243,55,,
340.5568411,136.248,55,,
341.6821408,136.253,55,,
342.8039429,136.258,55,,
343.928721,136.262,55,,
345.0568843,136.267,55,,
346.178689,136.272,55,,
347.3064182,136.277,55,,
348.4221454,136.282,55,,
349.5445647,136.286,55,,
350.669229,136.291,55,,
351.7959404,136.296,55,,
352.9208055,136.3,55,,
354.0477035,136.305,55,,
355.1608758,136.309,55,,
356.2751377,136.314,55,,
357.3991215,136.319,55,,
358.5167677,136.323,55,,
359.6324422,136.328,55,,
360.7494855,136.332,55,,
361.873544,136.337,55,,
362.9980822,136.341,55,,
364.1244521,136.346,55,,
365.2481627,136.35,55,,
366.3644717,136.354,55,,
367.4932425,136.359,55,,
368.6234272,136.364,55,,
369.7542248,136.368,55,,
370.8795092,136.373,55,,
372.0024939,136.377,55,,
373.1325066,136.381,55,,
374.2620268,136.385,55,,
375.388087,136.39,55,,
376.5136418,136.394,55,,
377.6387432,136.398,55,,
378.7507133,136.402,55,,
379.8627274,136.406,55,,
380.9881063,136.411,55,,
382.1168587,136.415,55,,
383.2458181,136.419,55,,
384.3605876,136.423,55,,
385.4848177,136.428,55,,
386.6014314,136.432,55,,
387.7300661,136.435,55,,
388.8573515,136.44,55,,
389.9872003,136.444,55,,
391.1015911,136.448,55,,
392.2316005,136.452,55,,
393.3595986,136.456,55,,
394.484206,136.46,55,,
395.6115699,136.464,55,,
396.739291,136.468,55,,
397.8668058,136.472,55,,
398.9973369,136.476,55,,
400.1138837,136.48,55,,
401.2307575,136.484,55,,
402.3625586,136.488,55,,
403.4882603,136.492,55,,
404.6179326,136.496,55,,
405.7403066,136.5,55,,
406.8680105,136.504,55,,
407.9884524,136.508,55,,
409.1143517,136.511,55,,
410.2308111,136.515,55,,
411.354574,136.519,55,,
412.4823971,136.523,55,,
413.6107454,136.527,55,,
414.7220898,136.531,55,,
415.8458278,136.534,55,,
416.9692383,136.538,55,,
418.0931523,136.542,55,,
419.2144923,136.545,55,,
420.3384936,136.549,55,,
421.4592066,136.553,55,,
422.5841262,136.557,55,,
423.7097652,136.56,55,,
424.8361228,136.564,55,,
425.9640999,136.567,55,,
427.0797553,136.571,55,,
428.1954622,136.575,55,,
429.3166451,136.579,55,,
430.4397886,136.582,55,,
431.5638247,136.586,55,,
432.6836026,136.589,55,,
433.8060596,136.593,55,,
434.9304459,136.596,55,,
436.0543802,136.6,55,,
437.1802742,136.603,55,,
438.3019388,136.607,55,,
439.4247916,136.61,55,,
440.5437295,136.614,55,,
441.6570535,136.617,55,,
442.7721014,136.621,55,,
443.8870242,136.625,55,,
445.0087335,136.628,55,,
446.1305456,136.632,55,,
447.2525787,136.635,55,,
448.3799176,136.638,55,,
449.5090737,136.642,55,,
450.6392419,136.645,55,,
451.7677052,136.648,55,,
452.892267,136.652,55,,
454.0197735,136.656,55,,
455.1375163,136.659,55,,
456.2552836,136.662,55,,
457.3701904,136.665,55,,
458.4868305,136.669,55,,
459.6109984,136.672,55,,
460.7392435,136.675,55,,
461.8713877,136.679,55,,
462.9972301,136.682,55,,
464.113447,136.685,55,,
465.2420313,136.688,55,,
466.3667135,136.692,55,,
467.4953201,136.695,55,,
468.6235135,136.698,55,,
469.7549508,136.701,55,,
470.8854463,136.705,55,,
472.0061498,136.708,55,,
473.1307302,136.711,55,,
474.257859,136.714,55,,
475.3711267,136.717,55,,
476.4849031,136.72,55,,
477.6095171,136.724,55,,
478.7348375,136.726,55,,
479.8529029,136.73,55,,
480.9784734,136.732,55,,
482.1004157,136.736,55,,
483.2249105,136.739,55,,
484.3478272,136.742,55,,
485.4748034,136.745,55,,
486.5973132,136.748,55,,
487.7216284,136.751,55,,
488.8486626,136.754,55,,
489.9686236,136.757,55,,
491.0889854,136.76,55,,
492.2153511,136.763,55,,
493.3364618,136.766,55,,
494.4583554,136.769,55,,
495.5844264,136.772,55,,
496.7034783,136.775,55,,
497.8274076,136.778,55,,
498.9514437,136.78,55,,
500.0678635,136.783,55,,
501.1923625,136.787,55,,
502.3150914,136.79,55,,
503.4344356,136.792,55,,
504.5586145,136.795,55,,
505.6818259,136.798,55,,
506.8016434,136.801,55,,
507.9206798,136.804,55,,
509.0466821,136.807,55,,
510.1697717,136.809,55,,
511.295356,136.813,55,,
512.4189446,136.815,55,,
513.5434842,136.817,55,,
514.6645553,136.82,55,,
515.791857,136.824,55,,
516.9186127,136.826,55,,
518.0502279,136.829,55,,
519.1684489,136.832,55,,
520.2879465,136.834,55,,
521.4020798,136.837,55,,
522.5258861,136.84,55,,
523.6410801,136.843,55,,
524.7706242,136.845,55,,
525.8925879,136.848,55,,
527.0118847,136.851,55,,
528.1396179,136.853,55,,
529.2617195,136.856,55,,
530.3881772,136.859,55,,
531.5113297,136.861,55,,
532.6339347,136.864,55,,
533.7594349,136.866,55,,
534.8824489,136.869,55,,
536.0035694,136.872,55,,
537.1317334,136.875,55,,
538.2526453,136.877,55,,
539.3779247,136.88,55,,
540.4970655,136.882,55,,
541.6149783,136.885,55,,
542.7407658,136.887,55,,
543.855005,136.89,55,,
544.9758816,136.892,55,,
546.0921369,136.895,55,,
547.2161925,136.898,55,,
548.3484128,136.9,55,,
549.4662597,136.903,55,,
550.5846534,136.905,55,,
551.7155833,136.908,55,,
552.8316035,136.91,55,,
553.9606166,136.913,55,,
555.0768638,136.915,55,,
556.1933305,136.918,55,,
557.3092368,136.92,55,,
558.4264128,136.923,55,,
559.547354,136.925,55,,
560.6772189,136.927,55,,
561.7972429,136.93,55,,
562.9268312,136.933,55,,
564.0448127,136.935,55,,
565.175884,136.937,55,,
566.2935572,136.939,55,,
567.4237747,136.942,55,,
568.5418756,136.944,55,,
569.6706152,136.946,55,,
570.7935715,136.949,55,,
571.9140778,136.951,55,,
573.0419972,136.954,55,,
574.1581488,136.956,55,,
575.2754731,136.958,55,,
576.3999865,136.961,55,,
577.5158329,136.963,55,,
578.6422806,136.965,55,,
579.7613888,136.967,55,,
580.8803,136.97,55,,
581.996798,136.972,55,,
583.1148047,136.974,55,,
584.2315421,136.976,55,,
585.3467524,136.979,55,,
586.4608428,136.981,55,,
587.5804038,136.983,55,,
588.6993597,136.986,55,,
589.8149767,136.988,55,,
590.9332552,136.99,55,,
592.0490236,136.992,55,,
593.167134,136.994,55,,
594.283808,136.996,55,,
595.4046729,136.998,55,,
596.5292118,137.001,55,,
597.6562417,137.003,55,,
598.7852399,137.005,55,,
599.9168911,137.007,55,,
601.0455382,137.009,55,0.005621518,
602.1717477,137.011,55,0.005598261,
603.2916811,137.014,55,0.005574728,
604.4118671,137.016,55,0.005551068,
605.5400133,137.018,55,0.005527355,
606.6567447,137.02,55,0.005503648,
607.7878418,137.022,55,0.005480001,
608.9042091,137.024,55,0.005456398,
610.0223539,137.026,55,0.005432877,
611.1493695,137.028,55,0.005409439,
612.2763276,137.03,55,0.00538614,
613.4027982,137.032,55,0.005362943,
614.5296345,137.034,55,0.00533987,
615.643616,137.036,55,0.005316922,
616.757441,137.039,55,0.005294101,
617.8740253,137.04,55,0.005271426,
618.9957528,137.042,55,0.005248897,
620.1147265,137.044,55,0.005226497,
621.2431784,137.046,55,0.005204264,
622.3605797,137.049,55,0.005182182,
623.4846048,137.05,55,0.005160213,
624.6003115,137.052,55,0.005138379,
625.7222428,137.054,55,0.005116681,
626.8462474,137.056,55,0.005095155,
627.974268,137.058,55,0.005073748,
629.1008451,137.06,55,0.00505248,
630.2174952,137.062,55,0.005031332,
631.3357811,137.064,55,0.005010325,
632.4502263,137.066,55,0.004989479,
633.5771294,137.068,55,0.004968738,
634.7016048,137.07,55,0.00494814,
635.8298144,137.072,55,0.004927667,
636.956779,137.074,55,0.004907341,
638.087774,137.076,55,0.004887141,
639.2172477,137.078,55,0.004867051,
640.3312318,137.08,55,0.004847092,
641.4583509,137.081,55,0.004827245,
642.5779622,137.083,55,0.004807531,
643.7106369,137.085,55,0.004787931,
644.8385787,137.087,55,0.004768447,
645.9627957,137.089,55,0.004749059,
647.0841141,137.091,55,0.004729827,
648.2220547,137.093,55,0.004710693,
649.3472404,137.094,55,0.00469166,
650.4766717,137.096,55,0.004672729,
651.5936389,137.098,55,0.004653919,
652.7197425,137.1,55,0.004635232,
653.8444042,137.102,55,0.004616631,
654.9645162,137.104,55,0.004598136,
656.0909414,137.105,55,0.004579766,
657.219487,137.107,55,0.004561484,
658.3439896,137.109,55,0.00454331,
659.4665318,137.111,55,0.004525227,
660.6010702,137.113,55,0.004507272,
661.7258501,137.114,55,0.004489391,
662.8495884,137.116,55,0.004471622,
663.9759698,137.118,55,0.004453947,
665.1019449,137.119,55,0.004436368,
666.2325823,137.121,55,0.004418883,
667.3582578,137.123,55,0.004401496,
668.4756193,137.125,55,0.004384207,
669.5987954,137.126,55,0.004367017,
670.7182066,137.128,55,0.004349909,
671.8427625,137.13,55,0.004332901,
672.9625552,137.132,55,0.004315995,
674.0899069,137.133,55,0.004299153,
675.2235498,137.135,55,0.004282396,
676.3425505,137.137,55,0.004265743,
677.4713676,137.138,55,0.004249156,
678.5873291,137.14,55,0.004232658,
679.7065587,137.142,55,0.004216246,
680.8263962,137.143,55,0.004199924,
681.9440873,137.145,55,0.004183692,
683.0716476,137.147,55,0.004167548,
684.1998577,137.148,55,0.004151458,
685.3267252,137.15,55,0.004135476,
686.4470098,137.152,55,0.004119588,
687.5712035,137.153,55,0.004103756,
688.6947379,137.155,55,0.004088018,
689.8175843,137.156,55,0.004072355,
690.9415686,137.158,55,0.00405677,
692.065048,137.16,55,0.004041262,
693.181417,137.161,55,0.004025813,
694.3027518,137.163,55,0.004010445,
695.4251523,137.164,55,0.003995156,
696.5500405,137.166,55,0.003979947,
697.6739814,137.167,55,0.0039648,
698.799479,137.169,55,0.003949754,
699.9222291,137.17,55,0.003934754,
701.0414362,137.172,55,0.003919837,
702.1695633,137.173,55,0.003904966,
703.294457,137.175,55,0.003890198,
704.4174669,137.177,55,0.003875497,
705.5449171,137.178,55,0.003860864,
706.6696517,137.179,55,0.00384628,
707.7912111,137.181,55,0.003831783,
708.914109,137.183,55,0.003817375,
710.042474,137.184,55,0.003803018,
711.1626234,137.186,55,0.003788733,
712.2899454,137.187,55,0.003774519,
713.4139414,137.189,55,0.003760378,
714.5415952,137.19,55,0.003746291,
715.6675482,137.191,55,0.003732259,
716.7917383,137.193,55,0.003718302,
717.9197929,137.194,55,0.003704401,
719.0494866,137.196,55,0.003690575,
720.1654749,137.197,55,0.003676807,
721.2870934,137.198,55,0.00366308,
722.4112389,137.2,55,0.003649431,
723.5410163,137.201,55,0.003635841,
724.6688087,137.203,55,0.003622331,
725.7934904,137.204,55,0.003608862,
726.9197912,137.206,55,0.003595455,
728.0446627,137.207,55,0.003582111,
729.1667869,137.208,55,0.003568829,
730.2822301,137.21,55,0.003555611,
731.4112027,137.212,55,0.003542457,
732.5276847,137.212,55,0.003529349,
733.6583853,137.214,55,0.003516306,
734.7868991,137.215,55,0.00350331,
735.9084675,137.217,55,0.00349038,
737.033612,137.218,55,0.003477499,
738.1619701,137.219,55,0.003464667,
739.2847185,137.221,55,0.003451904,
740.4053957,137.222,55,0.003439173,
741.5265536,137.223,55,0.003426512,
742.6539974,137.225,55,0.003413921,
743.7779999,137.226,55,0.003401364,
744.9018641,137.227,55,0.003388859,
746.0275278,137.229,55,0.003376427,
747.1513948,137.23,55,0.003364029,
748.2742109,137.231,55,0.003351686,
749.396203,137.232,55,0.00333938,
750.5257468,137.234,55,0.003327148,
751.6455665,137.235,55,0.003314953,
752.7668688,137.236,55,0.003302816,
753.894629,137.237,55,0.003290717,
755.0181115,137.239,55,0.003278695,
756.1449785,137.24,55,0.003266713,
757.2717576,137.241,55,0.003254772,
758.3946574,137.243,55,0.00324289,
759.5160842,137.244,55,0.00323105,
760.630604,137.245,55,0.003219271,
761.757551,137.246,55,0.003207535,
762.8742645,137.248,55,0.003195861,
763.9955416,137.249,55,0.003184231,
765.1199663,137.25,55,0.003172646,
766.2426982,137.251,55,0.003161105,
767.3646111,137.252,55,0.00314961,
768.4933374,137.253,55,0.003138142,
769.622499,137.255,55,0.00312674,
770.7416422,137.256,55,0.003115366,
771.8704538,137.257,55,0.003104058,
772.9965761,137.258,55,0.003092779,
774.1149774,137.259,55,0.003081549,
775.2462869,137.26,55,0.00307035,
776.3634112,137.262,55,0.003059219,
777.4856236,137.263,55,0.003048138,
778.6001234,137.264,55,0.003037089,
779.7226601,137.265,55,0.003026091,
780.8463986,137.266,55,0.003015126,
781.9615073,137.267,55,0.003004214,
783.0898144,137.268,55,0.002993336,
784.2060459,137.269,55,0.002982492,
785.3358078,137.271,55,0.00297172,
786.4583924,137.272,55,0.002960984,
787.5803995,137.273,55,0.002950284,
788.7026324,137.274,55,0.002939621,
789.8268912,137.275,55,0.002929014,
790.9537454,137.276,55,0.002918425,
792.0825531,137.277,55,0.002907874,
793.2059381,137.278,55,0.002897381,
794.3313427,137.279,55,0.002886926,
795.4473526,137.28,55,0.002876511,
796.5752232,137.282,55,0.002866155,
797.7060773,137.282,55,0.002855801,
798.8209238,137.284,55,0.002845507,
799.9451122,137.285,55,0.002835254,
801.0632255,137.286,55,0.002825043,
802.1906757,137.286,55,0.002814856,
803.3097651,137.288,55,0.002804731,
804.4413891,137.289,55,0.00279463,
805.5577264,137.29,55,0.002784574,
806.6837282,137.291,55,0.002774542,
807.8074052,137.292,55,0.002764556,
808.9260199,137.293,55,0.002754614,
810.0548398,137.294,55,0.0027447,
811.1668487,137.295,55,0.002734832,
