time,temp,output,slope
0.11136198043823242,104.537,40.0
1.2314677238464355,104.54,40.0
2.354564666748047,104.549,40.0
3.4682934284210205,104.561,40.0
4.598726272583008,104.574,40.0
5.725310564041138,104.589,40.0
6.852850437164307,104.603,40.0
7.974923849105835,104.617,40.0
9.095123052597046,104.632,40.0
10.222395658493042,104.648,40.0
11.341550827026367,104.663,40.0
12.45883297920227,104.678,40.0
13.575936794281006,104.693,40.0
14.70172643661499,104.708,40.0
15.820793151855469,104.724,40.0
16.945246696472168,104.739,40.0
18.067609786987305,104.754,40.0
19.190423011779785,104.77,40.0
20.317754983901978,104.785,40.0
21.44141983985901,104.801,40.0
22.5545392036438,104.816,40.0
23.673269748687744,104.831,40.0
24.80460262298584,104.845,40.0
25.92543601989746,104.861,40.0
27.053696870803833,104.876,40.0
28.170892000198364,104.89,40.0
29.299087285995483,104.905,40.0
30.418527364730835,104.919,40.0
31.54004955291748,104.934,40.0
32.6602988243103,104.948,40.0
33.782100677490234,104.962,40.0
34.90615200996399,104.977,40.0
36.02988529205322,104.992,40.0
37.155693769454956,105.005,40.0
38.2702100276947,105.019,40.0
39.390347480773926,105.034,40.0
40.50879096984863,105.048,40.0
41.62958359718323,105.063,40.0
42.746395111083984,105.077,40.0
43.86229491233826,105.091,40.0
44.97858715057373,105.105,40.0
46.0993869304657,105.118,40.0
47.22755980491638,105.133,40.0
48.34821796417236,105.146,40.0
49.475616216659546,105.16,40.0
50.597005128860474,105.173,40.0
51.721946716308594,105.187,40.0
52.83281636238098,105.202,40.0
53.958341121673584,105.215,40.0
55.08117151260376,105.228,40.0
56.19651508331299,105.241,40.0
57.314892530441284,105.254,40.0
58.44123721122742,105.269,40.0
59.56164765357971,105.282,40.0
60.68437600135803,105.295,40.0
61.80918264389038,105.308,40.0
62.93001341819763,105.323,40.0
64.05000138282776,105.335,40.0
65.171306848526,105.348,40.0
66.292307138443,105.361,40.0
67.41203594207764,105.374,40.0
68.53378415107727,105.388,40.0
69.65057826042175,105.401,40.0
70.77528309822083,105.413,40.0
71.90089297294617,105.426,40.0
73.02098727226257,105.438,40.0
74.14449000358582,105.452,40.0
75.26751756668091,105.465,40.0
76.39322209358215,105.477,40.0
77.51651668548584,105.49,40.0
78.6346595287323,105.504,40.0
80.87108564376831,105.529,40.0
81.99916744232178,105.541,40.0
83.1194236278534,105.553,40.0
84.23838806152344,105.567,40.0
85.3499665260315,105.579,40.0
86.46331095695496,105.591,40.0
87.58565950393677,105.604,40.0
88.70559549331665,105.616,40.0
89.82920575141907,105.629,40.0
90.95378804206848,105.641,40.0
92.07055139541626,105.653,40.0
93.18947196006775,105.665,40.0
94.30705165863037,105.677,40.0
95.43561315536499,105.69,40.0
96.56011295318604,105.702,40.0
97.67722678184509,105.714,40.0
98.80067276954651,105.726,40.0
99.92244410514832,105.737,40.0
101.0377368927002,105.751,40.0
102.15616726875305,105.762,40.0
103.27677392959595,105.774,40.0
104.40260910987854,105.786,40.0
105.53133869171143,105.799,40.0
106.66399955749512,105.81,40.0
107.78640079498291,105.822,40.0
108.91897439956665,105.834,40.0
110.03638958930969,105.846,40.0
111.16522312164307,105.858,40.0
112.27989387512207,105.869,40.0
113.39611768722534,105.881,40.0
114.52314686775208,105.892,40.0
115.63747429847717,105.905,40.0
116.76613736152649,105.916,40.0
117.87997078895569,105.928,40.0
119.00678205490112,105.939,40.0
120.12617993354797,105.952,40.0
121.2540831565857,105.963,40.0
122.37538290023804,105.975,40.0
123.49853849411011,105.986,40.0
124.62247395515442,105.997,40.0
125.7499589920044,106.009,40.0
126.87963104248047,106.02,40.0
128.00389790534973,106.032,40.0
129.12474417686462,106.043,40.0
130.24541091918945,106.055,40.0
131.36118865013123,106.066,40.0
132.48769307136536,106.077,40.0
133.60274863243103,106.088,40.0
134.7170844078064,106.099,40.0
135.83808088302612,106.111,40.0
136.95939660072327,106.122,40.0
138.08898496627808,106.133,40.0
139.2034683227539,106.143,40.0
140.3207459449768,106.154,40.0
141.44442582130432,106.166,40.0
142.56859517097473,106.176,40.0
143.6880693435669,106.187,40.0
144.81516337394714,106.198,40.0
145.93501543998718,106.209,40.0
147.06587886810303,106.219,40.0
148.18957948684692,106.23,40.0
149.3033320903778,106.24,40.0
150.42967629432678,106.251,40.0
151.54803490638733,106.262,40.0
152.6735496520996,106.272,40.0
153.80313420295715,106.282,40.0
154.92375659942627,106.292,40.0
156.0500464439392,106.303,40.0
157.17321228981018,106.313,40.0
158.30448293685913,106.323,40.0
159.43189191818237,106.334,40.0
160.55539655685425,106.344,40.0
161.6761236190796,106.354,40.0
162.7966914176941,106.364,40.0
163.9118709564209,106.374,40.0
165.0304868221283,106.384,40.0
166.1524305343628,106.394,40.0
167.27335834503174,106.404,40.0
168.39132523536682,106.414,40.0
169.51032853126526,106.424,40.0
170.636723279953,106.434,40.0
171.76184630393982,106.444,40.0
172.8798975944519,106.454,40.0
174.0010290145874,106.464,40.0
175.12352538108826,106.474,40.0
176.24866843223572,106.484,40.0
177.3719642162323,106.494,40.0
178.48451495170593,106.503,40.0
179.60276341438293,106.512,40.0
180.71968531608582,106.522,40.0
181.83227062225342,106.532,40.0
182.9590938091278,106.542,40.0
184.08194708824158,106.552,40.0
185.1973581314087,106.561,40.0
186.31309247016907,106.571,40.0
187.43374800682068,106.58,40.0
188.55880641937256,106.591,40.0
189.67946910858154,106.6,40.0
190.80274081230164,106.609,40.0
191.9270372390747,106.619,40.0
193.0450577735901,106.629,40.0
194.16049027442932,106.638,40.0
195.28164553642273,106.647,40.0
196.39413785934448,106.656,40.0
197.510511636734,106.665,40.0
198.63312935829163,106.674,40.0
199.75692772865295,106.684,40.0
200.87650203704834,106.693,40.0
202.00253868103027,106.702,40.0
203.122704744339,106.711,40.0
204.23728799819946,106.72,40.0
205.35805583000183,106.729,40.0
206.4814383983612,106.738,40.0
207.60150623321533,106.747,40.0
208.72217750549316,106.756,40.0
209.84150218963623,106.766,40.0
210.95664930343628,106.775,40.0
212.078280210495,106.784,40.0
213.19468450546265,106.793,40.0
214.31765866279602,106.802,40.0
215.44473528862,106.812,40.0
216.56823682785034,106.821,40.0
217.69623160362244,106.83,40.0
218.81858825683594,106.839,40.0
219.94430351257324,106.849,40.0
221.06271815299988,106.858,40.0
222.1839156150818,106.867,40.0
223.30710768699646,106.876,40.0
224.4329891204834,106.884,40.0
225.55306482315063,106.894,40.0
226.67493271827698,106.903,40.0
227.79117798805237,106.912,40.0
228.91074991226196,106.921,40.0
230.02940440177917,106.929,40.0
231.14694786071777,106.939,40.0
232.26996326446533,106.948,40.0
233.38898181915283,106.956,40.0
234.5065085887909,106.965,40.0
235.62972378730774,106.974,40.0
236.75093722343445,106.983,40.0
237.87563800811768,106.992,40.0
238.9997742176056,107.001,40.0
240.123272895813,107.01,40.0
241.25499296188354,107.019,40.0
242.37475180625916,107.028,40.0
243.48788285255432,107.037,40.0
244.60571908950806,107.045,40.0
245.72131252288818,107.054,40.0
246.84259295463562,107.063,40.0
247.96201133728027,107.072,40.0
249.07946014404297,107.081,40.0
250.20146131515503,107.089,40.0
251.32676577568054,107.098,40.0
252.45156741142273,107.107,40.0
253.5735800266266,107.116,40.0
254.69762682914734,107.124,40.0
255.82020139694214,107.133,40.0
256.9432997703552,107.142,40.0
258.06314182281494,107.151,40.0
259.18515491485596,107.159,40.0
260.3014495372772,107.168,40.0
261.4172258377075,107.176,40.0
262.5382356643677,107.185,40.0
263.66326665878296,107.194,40.0
264.7910964488983,107.203,40.0
265.91558623313904,107.211,40.0
267.03797793388367,107.219,40.0
268.16432428359985,107.228,40.0
269.2885649204254,107.237,40.0
270.41042709350586,107.245,40.0
271.5354709625244,107.254,40.0
272.6577253341675,107.263,40.0
273.7756938934326,107.271,40.0
274.89520239830017,107.28,40.0
276.00965309143066,107.288,40.0
277.1293978691101,107.296,40.0
278.24448585510254,107.305,40.0
279.3726999759674,107.314,40.0
280.49795866012573,107.322,40.0
281.6141474246979,107.33,40.0
282.7340199947357,107.339,40.0
283.84948539733887,107.347,40.0
284.9691071510315,107.355,40.0
286.08960795402527,107.364,40.0
287.2081537246704,107.372,40.0
288.3328146934509,107.38,40.0
289.4569308757782,107.389,40.0
290.57979941368103,107.397,40.0
291.69570565223694,107.406,40.0
292.81671595573425,107.414,40.0
293.94239473342896,107.423,40.0
295.06377148628235,107.431,40.0
296.1876378059387,107.439,40.0
297.3072717189789,107.448,40.0
298.4369339942932,107.456,40.0
299.55926299095154,107.465,40.0
300.6894862651825,107.474,40.0
301.80400252342224,107.482,40.0
302.9233298301697,107.49,40.0
304.04736852645874,107.499,40.0
305.1690366268158,107.507,40.0
306.29057025909424,107.516,40.0
307.41470289230347,107.524,40.0
308.536625623703,107.532,40.0
309.6527347564697,107.541,40.0
310.7840735912323,107.549,40.0
311.90084505081177,107.557,40.0
313.0304729938507,107.565,40.0
315.268515586853,107.582,40.0
316.38277554512024,107.591,40.0
317.5111129283905,107.599,40.0
318.62668657302856,107.607,40.0
319.7492277622223,107.616,40.0
320.86243414878845,107.624,40.0
321.9804177284241,107.632,40.0
323.09487533569336,107.641,40.0
324.21667432785034,107.649,40.0
325.3299367427826,107.657,40.0
326.4517824649811,107.665,40.0
327.57566952705383,107.673,40.0
328.69686555862427,107.681,40.0
329.8213813304901,107.689,40.0
330.94106364250183,107.697,40.0
332.0637319087982,107.706,40.0
333.19226908683777,107.714,40.0
334.3135826587677,107.721,40.0
335.4418795108795,107.729,40.0
336.5679461956024,107.738,40.0
337.6820652484894,107.746,40.0
338.8028519153595,107.754,40.0
339.91582012176514,107.762,40.0
341.02963852882385,107.769,40.0
342.1470477581024,107.777,40.0
343.26883840560913,107.786,40.0
344.39271807670593,107.794,40.0
345.50556230545044,107.802,40.0
346.61698484420776,107.809,40.0
347.7327263355255,107.817,40.0
348.8514964580536,107.826,40.0
349.96926760673523,107.833,40.0
351.0872554779053,107.841,40.0
352.2097980976105,107.849,40.0
353.33514046669006,107.857,40.0
354.46503949165344,107.865,40.0
355.5806565284729,107.873,40.0
356.6955683231354,107.88,40.0
357.8128910064697,107.888,40.0
358.93383860588074,107.895,40.0
360.0543735027313,107.904,40.0
361.1719217300415,107.911,40.0
362.28889179229736,107.918,40.0
363.40877628326416,107.926,40.0
364.5370171070099,107.934,40.0
365.6568977832794,107.942,40.0
366.77506399154663,107.95,40.0
367.90181016921997,107.957,40.0
369.02039194107056,107.964,40.0
370.1404571533203,107.972,40.0
371.2556736469269,107.98,40.0
372.37252378463745,107.988,40.0
373.49052333831787,107.995,40.0
374.61001324653625,108.003,40.0
375.73203206062317,108.01,40.0
376.8458936214447,108.017,40.0
377.9625840187073,108.026,40.0
379.08357214927673,108.033,40.0
380.2012357711792,108.041,40.0
381.31672286987305,108.048,40.0
382.436142206192,108.056,40.0
383.55555868148804,108.063,40.0
384.68146204948425,108.071,40.0
385.7996234893799,108.078,40.0
386.9176080226898,108.085,40.0
388.0345153808594,108.093,40.0
389.1566972732544,108.1,40.0
390.2770435810089,108.108,40.0
391.3946580886841,108.115,40.0
392.5167315006256,108.122,40.0
393.6381607055664,108.129,40.0
394.7575480937958,108.137,40.0
395.8793091773987,108.144,40.0
397.01108622550964,108.151,40.0
398.137571811676,108.159,40.0
399.2563190460205,108.166,40.0
400.38174057006836,108.173,40.0
401.50004267692566,108.18,40.0
402.61795806884766,108.187,40.0
403.7315003871918,108.194,40.0
404.85875725746155,108.202,40.0
405.97796416282654,108.208,40.0
407.1022810935974,108.216,40.0
408.2247312068939,108.222,40.0
409.35036039352417,108.23,40.0
410.47160363197327,108.236,40.0
411.58923411369324,108.243,40.0
412.7067515850067,108.25,40.0
413.8276045322418,108.257,40.0
414.9505650997162,108.263,40.0
416.0773115158081,108.271,40.0
417.19522738456726,108.277,40.0
418.3165547847748,108.284,40.0
419.43654799461365,108.29,40.0
420.55978417396545,108.298,40.0
421.6761031150818,108.305,40.0
422.7982075214386,108.312,40.0
423.91877031326294,108.318,40.0
425.0466945171356,108.325,40.0
426.16867852211,108.332,40.0
427.2923707962036,108.339,40.0
428.41361355781555,108.346,40.0
429.53373408317566,108.353,40.0
430.6534984111786,108.359,40.0
431.7740635871887,108.366,40.0
432.89629435539246,108.373,40.0
434.0199165344238,108.379,40.0
435.1350464820862,108.386,40.0
436.25444865226746,108.392,40.0
437.3706524372101,108.4,40.0
438.4926197528839,108.406,40.0
439.6130452156067,108.412,40.0
440.73380517959595,108.419,40.0
441.8572795391083,108.426,40.0
442.9769299030304,108.433,40.0
444.1009130477905,108.439,40.0
445.22371077537537,108.446,40.0
447.4890069961548,108.459,40.0
448.61383867263794,108.466,40.0
449.73644185066223,108.473,40.0
450.8675625324249,108.48,40.0
451.9835035800934,108.487,40.0
453.099999666214,108.493,40.0
454.22046065330505,108.5,40.0
455.3459632396698,108.506,40.0
456.46753215789795,108.513,40.0
457.58777952194214,108.52,40.0
458.7088644504547,108.526,40.0
459.8273015022278,108.533,40.0
460.94610810279846,108.539,40.0
462.06900668144226,108.546,40.0
463.19364047050476,108.552,40.0
464.3174879550934,108.559,40.0
465.44169330596924,108.565,40.0
466.56129026412964,108.572,40.0
467.67950201034546,108.578,40.0
468.7953360080719,108.584,40.0
469.9234380722046,108.59,40.0
471.0442159175873,108.596,40.0
472.16844415664673,108.603,40.0
473.2854402065277,108.609,40.0
474.40701627731323,108.616,40.0
475.5261163711548,108.622,40.0
476.6494228839874,108.628,40.0
477.7663538455963,108.634,40.0
478.88809847831726,108.641,40.0
480.012001991272,108.647,40.0
481.1325263977051,108.653,40.0
482.25103974342346,108.659,40.0
483.3648021221161,108.666,40.0
484.48295044898987,108.672,40.0
485.59910130500793,108.678,40.0
486.71936082839966,108.684,40.0
487.8404858112335,108.69,40.0
488.97066497802734,108.697,40.0
490.0884807109833,108.703,40.0
491.21076583862305,108.709,40.0
492.33678913116455,108.715,40.0
493.46414518356323,108.721,40.0
494.58543729782104,108.728,40.0
495.70847153663635,108.734,40.0
496.8294234275818,108.74,40.0
497.95067405700684,108.745,40.0
499.07973170280457,108.752,40.0
500.20613837242126,108.758,40.0
501.32194352149963,108.764,40.0
502.44104981422424,108.77,40.0
503.56194281578064,108.777,40.0
504.67956614494324,108.783,40.0
505.7994210720062,108.789,40.0
506.92299818992615,108.795,40.0
508.04361033439636,108.801,40.0
509.1579101085663,108.807,40.0
510.2762382030487,108.814,40.0
511.3927912712097,108.82,40.0
512.5094907283783,108.826,40.0
513.6296405792236,108.833,40.0
514.748809337616,108.839,40.0
515.8646223545074,108.845,40.0
516.9797394275665,108.851,40.0
518.0966901779175,108.857,40.0
519.2186403274536,108.863,40.0
520.3386771678925,108.87,40.0
521.4690976142883,108.876,40.0
522.5870585441589,108.882,40.0
523.7100167274475,108.888,40.0
524.8413097858429,108.894,40.0
525.9643929004669,108.9,40.0
527.0810911655426,108.906,40.0
528.2042834758759,108.912,40.0
529.328928232193,108.918,40.0
530.4440548419952,108.925,40.0
531.5617053508759,108.93,40.0
532.6818087100983,108.937,40.0
533.8013083934784,108.943,40.0
534.9230284690857,108.949,40.0
536.0454835891724,108.955,40.0
537.1687128543854,108.961,40.0
538.288152217865,108.967,40.0
539.4088537693024,108.973,40.0
540.5276327133179,108.979,40.0
541.6526312828064,108.984,40.0
542.7745020389557,108.991,40.0
543.8967235088348,108.997,40.0
545.0167572498322,109.003,40.0
546.139645576477,109.008,40.0
547.2586483955383,109.014,40.0
548.383947134018,109.021,40.0
549.4988596439362,109.027,40.0
550.6229627132416,109.033,40.0
551.7440321445465,109.039,40.0
552.8667314052582,109.046,40.0
553.9919695854187,109.051,40.0
555.1262636184692,109.057,40.0
556.2536442279816,109.063,40.0
557.3734481334686,109.07,40.0
558.4908337593079,109.075,40.0
559.6108999252319,109.082,40.0
560.7313506603241,109.087,40.0
561.8534250259399,109.093,40.0
562.9755747318268,109.1,40.0
564.0895984172821,109.106,40.0
565.2138938903809,109.111,40.0
566.3425626754761,109.117,40.0
567.4568991661072,109.123,40.0
568.5743675231934,109.13,40.0
569.691023349762,109.135,40.0
570.8055548667908,109.141,40.0
571.9268851280212,109.147,40.0
573.0489473342896,109.152,40.0
574.1720516681671,109.159,40.0
575.2879066467285,109.164,40.0
576.4026279449463,109.17,40.0
577.5306873321533,109.176,40.0
578.6548528671265,109.182,40.0
579.7708179950714,109.188,40.0
580.892157793045,109.194,40.0
582.0118408203125,109.199,40.0
583.1388030052185,109.205,40.0
584.2642288208008,109.211,40.0
585.3889164924622,109.217,40.0
586.5107066631317,109.223,40.0
587.6254589557648,109.229,40.0
588.7452008724213,109.234,40.0
589.8702163696289,109.241,40.0
590.9936423301697,109.246,40.0
592.113180398941,109.252,40.0
593.2335903644562,109.258,40.0
594.3512225151062,109.264,40.0
595.4758057594299,109.269,40.0
596.5918445587158,109.275,40.0
597.7187435626984,109.281,40.0
598.8446304798126,109.286,40.0
599.9655604362488,109.292,40.0
601.0843553543091,109.298,40.0,0.007661857132990846
602.2126047611237,109.304,40.0,0.0076472950733736545
603.3308460712433,109.309,40.0,0.007632663009664529
604.4525291919708,109.315,40.0,0.007618036312357399
605.5851922035217,109.321,40.0,0.007603430430396541
606.7133665084839,109.326,40.0,0.007588865763395942
607.8458869457245,109.332,40.0,0.007574342148677951
608.9660446643829,109.338,40.0,0.007559862742942597
610.0997347831726,109.344,40.0,0.00754544482695209
611.2331099510193,109.349,40.0,0.007531088380417466
612.3516185283661,109.355,40.0,0.007516797374537391
613.4669909477234,109.36,40.0,0.0075025545355934505
614.5865671634674,109.366,40.0,0.007488378501824728
615.7066760063171,109.371,40.0,0.007474250253039754
616.8372964859009,109.377,40.0,0.007460206841666276
617.9581379890442,109.382,40.0,0.00744621265004181
619.0872941017151,109.388,40.0,0.007432285902350674
620.210638999939,109.394,40.0,0.007418446760690237
621.3302149772644,109.399,40.0,0.007404658748270148
622.4505150318146,109.405,40.0,0.007390960113566854
624.70530128479,109.416,40.0,0.00736375790587919
625.829051733017,109.421,40.0,0.007350217732359726
626.9563164710999,109.427,40.0,0.007336768834054891
628.0813128948212,109.433,40.0,0.007323392784217144
629.200517654419,109.439,40.0,0.007310073649873918
630.3148782253265,109.444,40.0,0.007296811587768261
631.4461495876312,109.45,40.0,0.007283605590496904
632.5649054050446,109.455,40.0,0.007270457976262729
633.6859300136566,109.462,40.0,0.007257387761511956
634.8094618320465,109.467,40.0,0.007244357685261445
635.9300329685211,109.472,40.0,0.007231387245443946
637.057610988617,109.478,40.0,0.007218494710248536
638.1762001514435,109.484,40.0,0.007205644516549662
639.3056044578552,109.489,40.0,0.0071928368093903865
640.4214477539062,109.495,40.0,0.007180110917702496
641.5542459487915,109.5,40.0,0.0071674278352110345
642.6749086380005,109.506,40.0,0.007154827030728968
643.7916069030762,109.511,40.0,0.0071422728861391845
644.9057607650757,109.516,40.0,0.007129766496777236
646.02219581604,109.521,40.0,0.007117308094577279
647.1511096954346,109.526,40.0,0.007104877291467984
648.2801630496979,109.532,40.0,0.007092529771188254
649.3989844322205,109.537,40.0,0.007080212563714788
650.5131447315216,109.542,40.0,0.007067944851587737
651.6346347332001,109.547,40.0,0.007055708149508643
652.7534837722778,109.552,40.0,0.007043521686970082
653.8819811344147,109.557,40.0,0.007031404839926482
655.015011548996,109.562,40.0,0.007019318749058053
656.1362497806549,109.567,40.0,0.007007266002834204
657.254020690918,109.573,40.0,0.006995267061730471
658.3712480068207,109.577,40.0,0.0069832849635859595
659.48592710495,109.583,40.0,0.006971394378534436
660.5991630554199,109.588,40.0,0.006959540834952064
661.7117538452148,109.593,40.0,0.006947724724464757
662.8315236568451,109.598,40.0,0.006935945330786824
663.953521490097,109.603,40.0,0.006924240637365897
665.0772435665131,109.608,40.0,0.006912555186032507
666.1990869045258,109.613,40.0,0.006900908262546087
667.3205320835114,109.618,40.0,0.006889300513168657
668.4506559371948,109.623,40.0,0.006877731382046452
669.5674185752869,109.628,40.0,0.006866221804322349
670.6844167709351,109.634,40.0,0.0068547728198017415
671.8155491352081,109.638,40.0,0.006843326197049607
